0 700000 sil
700000 1400000 j
1400000 1850000 i
1850000 2250000 d
2250000 2925000 o
2925000 3650000 o
3650000 4450000 sh
4450000 5225000 a
5225000 5975000 y
5975000 7650000 a
7650000 9950000 pau
9950000 10900000 s
10900000 11525000 e
11525000 12200000 e
12200000 12900000 m
12900000 13600000 i
13600000 14100000 ts
14100000 14450000 U
14450000 15250000 k
15250000 15750000 I
15750000 16350000 k
16350000 17100000 a
17100000 17700000 i
17700000 18250000 n
18250000 18950000 a
18950000 19350000 d
19350000 20050000 o
20050000 20600000 d
20600000 22100000 e
22100000 27300000 pau
27300000 27600000 g
27600000 28350000 i
28350000 28950000 j
28950000 29350000 u
29350000 30100000 ts
30100000 30550000 U
30550000 31400000 k
31400000 32300000 e
32300000 32950000 e
32950000 33250000 n
33250000 33850000 o
33850000 34800000 s
34800000 35625000 a
35625000 36500000 i
36500000 37000000 y
37000000 37950000 o
37950000 38725000 o
38725000 39175000 o
39175000 39825000 o
39825000 40600000 s
40600000 41225000 a
41225000 42000000 e
42000000 42250000 r
42250000 42800000 u
42800000 43450000 t
43450000 44200000 o
44200000 44600000 k
44600000 45100000 o
45100000 45350000 r
45350000 46000000 o
46000000 46400000 g
46400000 47100000 a
47100000 47750000 m
47750000 48400000 e
48400000 48800000 d
48800000 49700000 a
49700000 50625000 ch
50625000 51750000 i
51750000 58025000 pau
58025000 58900000 u
58900000 59250000 r
59250000 59650000 i
59650000 60400000 t
60400000 60950000 e
60950000 61950000 sh
61950000 62450000 i
62450000 63125000 j
63125000 63600000 o
63600000 64150000 o
64150000 64700000 n
64700000 65400000 o
65400000 65800000 g
65800000 66350000 i
66350000 67250000 j
67250000 67800000 u
67800000 68400000 ts
68400000 68650000 U
68650000 69450000 k
69450000 70075000 e
70075000 70800000 e
70800000 71200000 n
71200000 71900000 i
71900000 72550000 m
72550000 73900000 o
73900000 77100000 pau
77100000 77800000 k
77800000 78300000 a
78300000 78800000 g
78800000 79500000 e
79500000 79800000 r
79800000 80475000 i
80475000 80725000 g
80725000 81650000 a
81650000 82450000 m
82450000 82950000 i
82950000 83450000 e
83450000 84175000 h
84175000 85025000 a
85025000 85475000 j
85475000 85950000 i
85950000 86550000 m
86550000 87200000 e
87200000 87750000 t
87750000 88475000 a
88475000 89100000 sil
