0 2125000 sil
2125000 2900000 k
2900000 3550000 o
3550000 3850000 r
3850000 4400000 e
4400000 4900000 m
4900000 5800000 a
5800000 6250000 d
6250000 7675000 e
7675000 12200000 pau
12200000 13225000 sh
13225000 13600000 o
13600000 14550000 o
14550000 15050000 n
15050000 16025000 e
16025000 16825000 N
16825000 17325000 y
17325000 18250000 a
18250000 19350000 ky
19350000 19775000 u
19775000 20850000 u
20850000 25450000 pau
25450000 25700000 m
25700000 26200000 a
26200000 26850000 m
26850000 27500000 a
27500000 28150000 s
28150000 29200000 a
29200000 30050000 N
30050000 30400000 b
30400000 31400000 a
31400000 31650000 r
31650000 32200000 e
32200000 33050000 e
33050000 33650000 n
33650000 34400000 a
34400000 34950000 d
34950000 36450000 o
36450000 41275000 pau
41275000 42250000 ch
42250000 42675000 i
42675000 43400000 i
43400000 44150000 k
44150000 44750000 i
44750000 45300000 s
45300000 45600000 U
45600000 46600000 p
46600000 47600000 o
47600000 48050000 o
48050000 49200000 ts
49200000 49575000 u
49575000 50200000 o
50200000 51150000 s
51150000 51650000 a
51650000 52600000 s
52600000 53425000 a
53425000 54850000 e
54850000 60700000 pau
60700000 62000000 sh
62000000 62500000 i
62500000 63350000 m
63350000 64325000 i
64325000 64925000 N
64925000 65250000 n
65250000 65900000 i
65900000 66650000 m
66650000 67250000 i
67250000 67700000 cl
67700000 68550000 ch
68550000 69200000 a
69200000 69950000 k
69950000 70500000 u
70500000 71000000 sh
71000000 71400000 I
71400000 71700000 t
71700000 72250000 e
72250000 72800000 k
72800000 73050000 I
73050000 73700000 t
73700000 74300000 a
74300000 75025000 n
75025000 75500000 o
75500000 76025000 w
76025000 77200000 a
77200000 80850000 pau
80850000 81350000 m
81350000 81700000 u
81700000 82750000 s
82750000 83050000 u
83050000 83900000 u
83900000 84475000 n
84475000 85050000 o
85050000 85800000 b
85800000 86500000 o
86500000 86750000 r
86750000 87750000 a
87750000 88150000 N
88150000 89200000 t
89200000 89575000 i
89575000 90450000 a
90450000 90900000 d
90900000 91800000 a
91800000 93050000 cl
93050000 93500000 t
93500000 94400000 a
94400000 95550000 sil
