0 600000 sil
600000 2100000 j
2100000 2400000 i
2400000 3000000 k
3000000 3575000 o
3575000 4075000 n
4075000 4600000 o
4600000 5400000 ch
5400000 6100000 o
6100000 6600000 k
6600000 6900000 U
6900000 7450000 s
7450000 8150000 e
8150000 9100000 ts
9100000 9500000 u
9500000 10050000 g
10050000 11325000 e
11325000 12100000 e
12100000 12775000 i
12775000 13475000 N
13475000 14100000 t
14100000 14750000 o
14750000 15275000 n
15275000 16350000 a
16350000 17550000 cl
17550000 17950000 t
17950000 19150000 a
19150000 23150000 pau
23150000 23850000 a
23850000 24850000 ts
24850000 25250000 u
25250000 25675000 ry
25675000 26200000 o
26200000 26975000 k
26975000 27500000 u
27500000 28150000 k
28150000 28875000 a
28875000 29625000 k
29625000 30075000 u
30075000 30400000 h
30400000 31200000 e
31200000 32100000 k
32100000 32500000 i
32500000 33100000 n
33100000 34150000 o
34150000 36750000 pau
36750000 37325000 z
37325000 37800000 u
37800000 38650000 s
38650000 39650000 a
39650000 40150000 N
40150000 40900000 n
40900000 41650000 a
41650000 42800000 sh
42800000 43225000 u
43225000 44400000 u
44400000 44750000 r
44750000 45750000 i
45750000 51150000 pau
51150000 52300000 s
52300000 52650000 o
52650000 53225000 n
53225000 53900000 o
53900000 54900000 z
54900000 55175000 U
55175000 55950000 s
55950000 56800000 a
56800000 57400000 N
57400000 58300000 s
58300000 59100000 a
59100000 59650000 o
59650000 60350000 m
60350000 60750000 i
60750000 61600000 o
61600000 62400000 t
62400000 63150000 o
63150000 63850000 sh
63850000 64350000 I
64350000 64750000 t
64750000 65650000 a
65650000 66500000 ch
66500000 67250000 e
67250000 68350000 cl
68350000 68850000 k
68850000 69250000 u
69250000 70175000 sh
70175000 70650000 i
70650000 71400000 s
71400000 71650000 U
71650000 72000000 t
72000000 72550000 e
72550000 73300000 m
73300000 73550000 u
73550000 74150000 n
74150000 74900000 a
74900000 75300000 d
75300000 75900000 o
75900000 76300000 g
76300000 77100000 a
77100000 77950000 s
77950000 78425000 o
78425000 79350000 o
79350000 79900000 d
79900000 80875000 a
80875000 85400000 sil
