0 750000 sil
750000 1400000 n
1400000 2250000 i
2250000 3450000 cl
3450000 3850000 p
3850000 4950000 o
4950000 5550000 N
5550000 6300000 j
6300000 7000000 i
7000000 7300000 N
7300000 7800000 n
7800000 8550000 o
8550000 9550000 b
9550000 10450000 i
10450000 11200000 i
11200000 12100000 sh
12100000 12400000 I
12400000 13250000 k
13250000 13750000 i
13750000 14550000 o
14550000 15450000 k
15450000 16200000 e
16200000 17300000 cl
17300000 17800000 t
17800000 18400000 e
18400000 19400000 e
19400000 20250000 z
20250000 20650000 u
20650000 21200000 k
21200000 21800000 e
21800000 22500000 t
22500000 23200000 a
23200000 23750000 n
23750000 24200000 o
24200000 25000000 g
25000000 26450000 a
26450000 31500000 pau
31500000 32250000 ch
32250000 32950000 a
32950000 33600000 n
33600000 34200000 o
34200000 35100000 y
35100000 35550000 u
35550000 36000000 d
36000000 36850000 a
36850000 37550000 g
37550000 38600000 a
38600000 47800000 pau
47800000 48850000 ch
48850000 49350000 a
49350000 50350000 sh
50350000 50850000 i
50850000 51500000 ts
51500000 51800000 u
51800000 52350000 n
52350000 53050000 o
53050000 54150000 hy
54150000 54500000 o
54500000 55550000 o
55550000 56400000 j
56400000 57150000 u
57150000 58225000 N
58225000 58525000 w
58525000 60475000 a
60475000 61600000 pau
61600000 62200000 y
62200000 62950000 o
62950000 63700000 j
63700000 64500000 o
64500000 65250000 o
65250000 66000000 h
66000000 67250000 a
67250000 68000000 N
68000000 75700000 pau
75700000 76100000 n
76100000 76900000 a
76900000 77350000 k
77350000 78000000 a
78000000 78400000 n
78400000 79300000 i
79300000 79725000 w
79725000 80950000 a
80950000 84850000 pau
84850000 85775000 i
85775000 86450000 ch
86450000 86700000 i
86700000 87550000 j
87550000 88200000 o
88200000 89000000 o
89000000 90100000 a
90100000 90850000 m
90850000 91500000 a
91500000 91850000 r
91850000 92300000 i
92300000 93000000 t
93000000 93925000 o
93925000 94675000 y
94675000 95450000 u
95450000 95800000 u
95800000 96700000 m
96700000 97500000 i
97500000 97950000 n
97950000 98550000 i
98550000 99450000 m
99450000 100300000 o
100300000 101300000 a
101300000 101550000 r
101550000 102100000 u
102100000 104300000 sil
