0 7050000 sil
7050000 8100000 t
8100000 8850000 a
8850000 9450000 i
9450000 10250000 h
10250000 11550000 a
11550000 12100000 N
12100000 13000000 w
13000000 14450000 a
14450000 19600000 pau
19600000 20000000 o
20000000 21600000 o
21600000 22000000 t
22000000 22700000 e
22700000 23050000 n
23050000 23850000 o
23850000 24400000 ry
24400000 24700000 u
24700000 26250000 u
26250000 27200000 ts
27200000 28300000 u
28300000 28600000 u
28600000 29500000 gy
29500000 30300000 o
30300000 30800000 o
30800000 31650000 sh
31650000 32050000 a
32050000 33100000 o
33100000 33800000 h
33800000 34500000 e
34500000 35350000 t
35350000 36600000 e
36600000 40250000 pau
40250000 41200000 sh
41200000 41850000 o
41850000 42550000 t
42550000 43250000 e
43250000 44350000 N
44350000 45350000 e
45350000 45850000 n
45850000 46700000 a
46700000 47100000 g
47100000 47750000 a
47750000 48000000 r
48000000 48750000 e
48750000 49100000 r
49100000 49600000 u
49600000 50350000 g
50350000 51750000 a
51750000 56700000 pau
56700000 57350000 t
57350000 57900000 a
57900000 58800000 ch
58800000 59050000 i
59050000 59700000 m
59700000 60450000 a
60450000 61500000 ch
61500000 62950000 i
62950000 66800000 pau
66800000 67750000 h
67750000 68650000 e
68650000 69650000 N
69650000 70000000 p
70000000 70950000 o
70950000 71700000 N
71700000 72100000 t
72100000 72700000 o
72700000 73250000 n
73250000 74150000 a
74150000 74600000 cl
74600000 75150000 t
75150000 75500000 e
75500000 76550000 s
76550000 76850000 u
76850000 77100000 g
77100000 77850000 a
77850000 78500000 t
78500000 78900000 a
78900000 79950000 o
79950000 80800000 k
80800000 81450000 e
81450000 82100000 s
82100000 82550000 U
82550000 83200000 h
83200000 83750000 o
83750000 84650000 N
84650000 85100000 g
85100000 85750000 a
85750000 86400000 s
86400000 86650000 U
86650000 87450000 k
87450000 87800000 u
87800000 88200000 n
88200000 88900000 a
88900000 89750000 k
89750000 90000000 u
90000000 90650000 n
90650000 91550000 a
91550000 92200000 i
92200000 94700000 sil
