0 6550000 sil
6550000 7100000 ky
7100000 8050000 o
8050000 8450000 g
8450000 9850000 i
9850000 14850000 pau
14850000 15600000 f
15600000 16100000 u
16100000 17150000 j
17150000 17400000 o
17400000 18900000 o
18900000 19200000 r
19200000 20100000 i
20100000 20850000 o
20850000 21700000 y
21700000 22050000 u
22050000 22550000 r
22550000 22900000 u
22900000 23700000 s
23700000 24500000 a
24500000 24750000 n
24750000 25700000 a
25700000 26300000 i
26300000 27150000 t
27150000 27700000 o
27700000 29600000 y
29600000 29850000 u
29850000 30850000 u
30850000 31450000 y
31450000 31700000 u
31700000 32600000 u
32600000 33600000 k
33600000 34000000 i
34000000 34600000 n
34600000 35150000 i
35150000 35550000 y
35550000 36350000 o
36350000 37250000 cl
37250000 37650000 t
37650000 38200000 e
38200000 38950000 sh
38950000 39200000 I
39200000 40100000 k
40100000 41050000 a
41050000 46700000 pau
46700000 47250000 w
47250000 47600000 a
47600000 48000000 r
48000000 48600000 e
48600000 49500000 w
49500000 49850000 a
49850000 50150000 r
50150000 50700000 e
50700000 51700000 w
51700000 52700000 a
52700000 57450000 pau
57450000 58000000 n
58000000 58900000 i
58900000 59450000 N
59450000 60000000 g
60000000 61300000 e
61300000 62000000 N
62000000 62250000 r
62250000 62900000 a
62900000 63900000 sh
63900000 64550000 i
64550000 65100000 i
65100000 65900000 k
65900000 66550000 o
66550000 67250000 k
67250000 67950000 o
67950000 68250000 r
68250000 68550000 o
68550000 69900000 o
69900000 70900000 h
70900000 71550000 o
71550000 72100000 j
72100000 72450000 i
72450000 73500000 s
73500000 74000000 u
74000000 74450000 r
74450000 74850000 u
74850000 75800000 k
75800000 76300000 o
76300000 76850000 t
76850000 77500000 o
77500000 77950000 g
77950000 78500000 a
78500000 79150000 d
79150000 79650000 e
79650000 80600000 k
80600000 81000000 i
81000000 81450000 n
81450000 82300000 a
82300000 82800000 i
82800000 83300000 n
83300000 83750000 o
83750000 84500000 d
84500000 85200000 e
85200000 86700000 s
86700000 87050000 U
87050000 87650000 sil
