0 600000 sil
600000 900000 w
900000 1400000 a
1400000 2150000 t
2150000 2850000 a
2850000 3550000 sh
3550000 3850000 I
3850000 4200000 t
4200000 4800000 a
4800000 5900000 ch
5900000 6200000 i
6200000 7300000 f
7300000 8400000 u
8400000 8650000 u
8650000 9500000 f
9500000 9850000 u
9850000 10950000 w
10950000 11900000 a
11900000 18050000 pau
18050000 18500000 g
18500000 19450000 u
19450000 20200000 N
20200000 20650000 n
20650000 21300000 o
21300000 22150000 i
22150000 22550000 r
22550000 23500000 a
23500000 24300000 i
24300000 24850000 d
24850000 26500000 e
26500000 31150000 pau
31150000 32300000 ch
32300000 33250000 u
33250000 33500000 u
33500000 33750000 g
33750000 34750000 o
34750000 35250000 k
35250000 35750000 u
35750000 36600000 j
36600000 37650000 i
37650000 37950000 N
37950000 39550000 u
39550000 40350000 N
40350000 40900000 t
40900000 41250000 e
41250000 42200000 N
42200000 43000000 sh
43000000 43300000 U
43300000 43900000 n
43900000 44550000 o
44550000 45850000 ts
45850000 47300000 u
47300000 47550000 u
47550000 47900000 y
47900000 48550000 a
48550000 49500000 k
49500000 49750000 u
49750000 50950000 o
50950000 51750000 sh
51750000 52000000 I
52000000 52700000 n
52700000 53450000 a
53450000 54100000 g
54100000 54950000 a
54950000 55200000 r
55200000 56450000 a
56450000 61350000 pau
61350000 62400000 sh
62400000 63800000 a
63800000 64100000 N
64100000 64750000 h
64750000 65700000 a
65700000 66200000 i
66200000 66800000 m
66800000 67700000 a
67700000 68100000 d
68100000 69400000 e
69400000 73250000 pau
73250000 74100000 t
74100000 74400000 o
74400000 75900000 o
75900000 76550000 h
76550000 76800000 I
76800000 77600000 k
77600000 78600000 o
78600000 78950000 o
78950000 79700000 n
79700000 80000000 o
80000000 80900000 d
80900000 81200000 o
81200000 82450000 o
82450000 83300000 h
83300000 84050000 a
84050000 84550000 N
84550000 85950000 o
85950000 86950000 sh
86950000 87200000 I
87200000 87600000 t
87600000 88600000 a
88600000 90750000 sil
