0 750000 sil
750000 1000000 n
1000000 1800000 o
1800000 2450000 m
2450000 3100000 i
3100000 3650000 y
3650000 4500000 a
4500000 5000000 n
5000000 5500000 o
5500000 6650000 o
6650000 7650000 y
7650000 8150000 a
8150000 9100000 j
9100000 10450000 i
10450000 15900000 pau
15900000 16150000 ry
16150000 16800000 o
16800000 17450000 k
17450000 18500000 a
18500000 19050000 N
19050000 19500000 n
19500000 20050000 o
20050000 21050000 sh
21050000 21700000 u
21700000 22600000 j
22600000 23450000 i
23450000 24200000 N
24200000 28600000 pau
28600000 29100000 i
29100000 30300000 sh
30300000 30800000 a
30800000 32050000 o
32050000 32900000 h
32900000 33650000 a
33650000 34450000 j
34450000 34700000 i
34700000 35450000 m
35450000 37250000 e
37250000 42500000 pau
42500000 43200000 k
43200000 44050000 o
44050000 44400000 o
44400000 45300000 s
45300000 46000000 a
46000000 46700000 i
46700000 47300000 n
47300000 47550000 o
47550000 48500000 a
48500000 48950000 r
48950000 49700000 u
49700000 49950000 h
49950000 50200000 I
50200000 51000000 t
51000000 51550000 o
51550000 52250000 n
52250000 52550000 i
52550000 53600000 k
53600000 53950000 i
53950000 54750000 i
54750000 55400000 t
55400000 56000000 e
56000000 56550000 m
56550000 57200000 a
57200000 58250000 w
58250000 58750000 a
58750000 59900000 cl
59900000 60300000 t
60300000 61000000 a
61000000 61250000 r
61250000 62500000 a
62500000 69650000 pau
69650000 70100000 m
70100000 71000000 i
71000000 71500000 N
71500000 72000000 n
72000000 73750000 a
73750000 77100000 pau
77100000 77400000 w
77400000 77650000 a
77650000 78400000 t
78400000 79000000 a
79000000 80150000 sh
80150000 80400000 i
80400000 80800000 y
80800000 81400000 o
81400000 81700000 r
81700000 82300000 i
82300000 83400000 sh
83400000 85050000 u
85050000 85300000 u
85300000 85600000 ny
85600000 86300000 u
86300000 87150000 u
87150000 87450000 g
87450000 88250000 a
88250000 88550000 o
88550000 90750000 o
90750000 91400000 i
91400000 92350000 h
92350000 92950000 a
92950000 93750000 z
93750000 94050000 u
94050000 94400000 n
94400000 95150000 a
95150000 95650000 n
95650000 96400000 o
96400000 96950000 n
96950000 98100000 i
98100000 103800000 pau
103800000 104300000 z
104300000 105100000 e
105100000 105650000 e
105650000 106500000 k
106500000 107550000 i
107550000 108100000 N
108100000 108500000 w
108500000 109300000 a
109300000 109850000 y
109850000 110650000 a
110650000 111650000 s
111650000 112150000 u
112150000 113350000 i
113350000 116750000 sil
