0 750000 sil
750000 1650000 o
1650000 2500000 sh
2500000 3200000 o
3200000 3850000 k
3850000 4400000 u
4400000 5150000 j
5150000 5650000 i
5650000 6250000 k
6250000 7400000 e
7400000 7850000 N
7850000 12450000 pau
12450000 13450000 s
13450000 14050000 u
14050000 14500000 b
14500000 15300000 e
15300000 16050000 t
16050000 17350000 e
17350000 22350000 pau
22350000 22800000 y
22800000 23600000 o
23600000 24300000 N
24300000 25200000 j
25200000 25800000 u
25800000 26250000 u
26250000 26700000 n
26700000 27350000 i
27350000 28300000 s
28300000 29250000 a
29250000 29850000 N
29850000 30750000 s
30750000 31500000 a
31500000 32050000 i
32050000 32700000 k
32700000 33550000 a
33550000 33800000 r
33800000 35000000 a
35000000 38700000 pau
38700000 39100000 y
39100000 40000000 o
40000000 40800000 N
40800000 41650000 j
41650000 42750000 u
42750000 43000000 u
43000000 43250000 r
43250000 43900000 o
43900000 44800000 k
44800000 45050000 u
45050000 45800000 sh
45800000 46050000 I
46050000 47400000 ch
47400000 47750000 I
47750000 48350000 s
48350000 49050000 a
49050000 49800000 i
49800000 50550000 m
50550000 51400000 a
51400000 51950000 d
51950000 52950000 e
52950000 58850000 pau
58850000 59550000 k
59550000 60050000 a
60050000 60950000 ch
60950000 61250000 o
61250000 62200000 o
62200000 62900000 h
62900000 63550000 o
63550000 64400000 s
64400000 65650000 a
65650000 71050000 pau
71050000 71600000 k
71600000 72250000 a
72250000 73300000 ch
73300000 74000000 o
74000000 75400000 o
75400000 80350000 pau
80350000 80650000 b
80650000 81100000 u
81100000 82100000 j
82100000 82650000 i
82650000 83300000 ch
83300000 83750000 o
83750000 84450000 o
84450000 85350000 t
85350000 85900000 o
85900000 86700000 i
86700000 87650000 cl
87650000 88100000 t
88100000 89050000 a
89050000 89350000 a
89350000 90200000 t
90200000 90900000 a
90900000 91150000 r
91150000 91850000 i
91850000 92450000 g
92450000 93500000 a
93500000 96400000 pau
96400000 96650000 m
96650000 97250000 a
97250000 98400000 ch
98400000 98750000 i
98750000 99100000 g
99100000 99800000 a
99800000 101150000 i
101150000 102300000 o
102300000 102850000 o
102850000 103850000 k
103850000 104400000 o
104400000 105750000 s
105750000 106500000 U
106500000 107100000 sil
