0 950000 sil
950000 1400000 k
1400000 2100000 e
2100000 3450000 cl
3450000 3950000 k
3950000 5400000 o
5400000 6150000 N
6150000 6550000 i
6550000 6900000 r
6900000 7650000 a
7650000 8400000 i
8400000 9550000 s
9550000 10450000 a
10450000 11250000 N
11250000 11800000 n
11800000 12550000 e
12550000 13400000 N
13400000 14350000 h
14350000 15100000 a
15100000 16250000 N
16250000 16700000 b
16700000 17200000 u
17200000 17600000 r
17600000 18300000 i
18300000 18600000 n
18600000 19300000 o
19300000 20150000 t
20150000 20450000 o
20450000 21600000 o
21600000 22750000 ky
22750000 23200000 o
23200000 24200000 o
24200000 24950000 m
24950000 26300000 o
26300000 34550000 pau
34550000 35350000 ky
35350000 35600000 u
35600000 36700000 u
36700000 37600000 y
37600000 38300000 u
38300000 38650000 u
38650000 39550000 t
39550000 40300000 o
40300000 40900000 n
40900000 41250000 o
41250000 42150000 o
42150000 42900000 s
42900000 43650000 a
43650000 44300000 k
44300000 44850000 e
44850000 45900000 m
45900000 46850000 o
46850000 53550000 pau
53550000 53800000 y
53800000 54500000 a
54500000 55400000 k
55400000 57150000 o
57150000 57400000 o
57400000 57700000 r
57700000 58550000 e
58550000 58800000 cl
58800000 59950000 sh
59950000 60550000 a
60550000 61450000 m
61450000 62350000 o
62350000 70000000 pau
70000000 70950000 e
70950000 71650000 k
71650000 72200000 i
72200000 72600000 d
72600000 73450000 e
73450000 73950000 n
73950000 74850000 e
74850000 75700000 t
75700000 77850000 e
77850000 81100000 pau
81100000 81950000 a
81950000 82800000 s
82800000 83050000 a
83050000 84400000 o
84400000 85300000 m
85300000 86000000 a
86000000 86600000 ts
86600000 87000000 U
87000000 87900000 n
87900000 88350000 o
88350000 89000000 m
89000000 89350000 o
89350000 90200000 h
90200000 90450000 I
90450000 91100000 s
91100000 91600000 a
91600000 92600000 sh
92600000 92850000 i
92850000 93600000 b
93600000 93950000 u
93950000 94350000 r
94350000 95000000 i
95000000 95350000 d
95350000 96700000 a
96700000 98750000 sil
