0 4050000 sil
4050000 4900000 t
4900000 5500000 a
5500000 6200000 t
6200000 7300000 a
7300000 8200000 N
8200000 8450000 d
8450000 9050000 e
9050000 10050000 a
10050000 10700000 r
10700000 10950000 u
10950000 11950000 h
11950000 12850000 a
12850000 13450000 N
13450000 14100000 t
14100000 15100000 e
15100000 15550000 N
15550000 16800000 o
16800000 17600000 h
17600000 17950000 I
17950000 18600000 r
18600000 19300000 o
19300000 19950000 g
19950000 20500000 e
20500000 20900000 r
20900000 21550000 e
21550000 22300000 b
22300000 23500000 a
23500000 29700000 pau
29700000 30500000 a
30500000 31350000 ch
31350000 31600000 I
31600000 32300000 k
32300000 32950000 o
32950000 33800000 ch
33800000 34200000 i
34200000 34550000 n
34550000 35200000 i
35200000 36450000 ts
36450000 36850000 u
36850000 37450000 g
37450000 38050000 i
38050000 38850000 h
38850000 39250000 a
39250000 39950000 g
39950000 40850000 i
40850000 41400000 g
41400000 42950000 a
42950000 43250000 a
43250000 43850000 r
43850000 45050000 i
45050000 53150000 pau
53150000 53650000 k
53650000 53900000 A
53900000 54650000 t
54650000 55450000 a
55450000 55900000 g
55900000 56800000 u
56800000 57650000 ch
57650000 58250000 i
58250000 58650000 n
58650000 59850000 i
59850000 60300000 d
60300000 60950000 e
60950000 61600000 k
61600000 61850000 I
61850000 62450000 t
62450000 63050000 a
63050000 63900000 h
63900000 64300000 o
64300000 65000000 k
65000000 65600000 o
65600000 65950000 r
65950000 66700000 o
66700000 67400000 b
67400000 68000000 i
68000000 68700000 n
68700000 69450000 a
69450000 70300000 N
70300000 71100000 k
71100000 72300000 a
72300000 76750000 pau
76750000 77800000 ky
77800000 78550000 o
78550000 78900000 n
78900000 79950000 e
79950000 80700000 N
80700000 81050000 n
81050000 81850000 o
81850000 82650000 m
82650000 83150000 a
83150000 83850000 m
83850000 84500000 a
84500000 84900000 n
84900000 85650000 i
85650000 86000000 n
86000000 86850000 a
86850000 88000000 cl
88000000 88500000 t
88500000 88750000 e
88750000 90100000 i
90100000 90500000 r
90500000 90800000 u
90800000 91600000 sil
