0 3750000 sil
3750000 4500000 b
4500000 5750000 a
5750000 6000000 N
6000000 6900000 s
6900000 8000000 a
8000000 8550000 N
8550000 9100000 n
9100000 9950000 o
9950000 10800000 ry
10800000 12000000 o
12000000 12250000 o
12250000 12650000 r
12650000 13000000 i
13000000 13950000 t
13950000 14300000 o
14300000 15250000 s
15250000 15600000 a
15600000 16800000 a
16800000 17400000 b
17400000 18000000 i
18000000 19150000 s
19150000 19400000 u
19400000 20250000 w
20250000 21050000 a
21050000 26800000 pau
26800000 27300000 o
27300000 28500000 o
28500000 29400000 t
29400000 29850000 e
29850000 30850000 y
30850000 31450000 o
31450000 32300000 N
32300000 33150000 h
33150000 33750000 o
33750000 34550000 t
34550000 35250000 e
35250000 35700000 r
35700000 36150000 u
36150000 36900000 g
36900000 38100000 a
38100000 43450000 pau
43450000 43900000 r
43900000 44950000 i
44950000 45650000 N
45650000 46200000 b
46200000 47100000 a
47100000 47800000 N
47800000 48900000 s
48900000 49700000 e
49700000 50200000 e
50200000 50750000 d
50750000 51300000 e
51300000 52300000 u
52300000 52950000 k
52950000 53600000 e
53600000 54300000 m
54300000 55050000 o
55050000 56200000 cl
56200000 56600000 t
56600000 56850000 e
56850000 58200000 i
58200000 58600000 r
58600000 58900000 u
58900000 59900000 g
59900000 60900000 a
60900000 67600000 pau
67600000 68050000 m
68050000 68950000 e
68950000 69900000 ny
69900000 70550000 u
70550000 71250000 u
71250000 72150000 w
72150000 73200000 a
73200000 78350000 pau
78350000 79300000 ts
79300000 79650000 u
79650000 79900000 n
79900000 80900000 e
80900000 81400000 n
81400000 81950000 i
81950000 82850000 f
82850000 83300000 u
83300000 83550000 r
83550000 84550000 a
84550000 85000000 N
85000000 85900000 s
85900000 86600000 u
86600000 87300000 ry
87300000 88300000 o
88300000 88550000 o
88550000 88900000 r
88900000 89250000 i
89250000 89850000 t
89850000 90450000 o
90450000 91550000 k
91550000 91800000 i
91800000 92450000 m
92450000 93250000 a
93250000 94400000 cl
94400000 94800000 t
94800000 95050000 e
95050000 96300000 i
96300000 96850000 r
96850000 97500000 u
97500000 98000000 sil
