0 800000 sil
800000 1350000 h
1350000 1800000 o
1800000 2750000 sh
2750000 3100000 u
3100000 3950000 sh
3950000 4700000 u
4700000 5000000 g
5000000 5650000 i
5650000 6250000 t
6250000 6950000 o
6950000 7400000 d
7400000 8150000 o
8150000 8850000 k
8850000 9300000 u
9300000 10000000 z
10000000 10400000 u
10400000 11100000 k
11100000 11800000 a
11800000 12050000 r
12050000 12650000 e
12650000 13500000 t
13500000 14550000 e
14550000 20500000 pau
20500000 21150000 y
21150000 21750000 o
21750000 22100000 r
22100000 22900000 i
22900000 23150000 n
23150000 24100000 i
24100000 24400000 y
24400000 25250000 o
25250000 26350000 cl
26350000 26800000 t
26800000 28500000 e
28500000 32100000 pau
32100000 33100000 s
33100000 33750000 a
33750000 34400000 i
34400000 35250000 s
35250000 36250000 e
36250000 36700000 N
36700000 37400000 t
37400000 38450000 a
38450000 39050000 N
39050000 39450000 n
39450000 39900000 o
39900000 41000000 z
41000000 41800000 e
41800000 42850000 N
42850000 44050000 e
44050000 44350000 e
44350000 45250000 s
45250000 46150000 a
46150000 47150000 cl
47150000 47600000 k
47600000 47850000 a
47850000 49300000 o
49300000 50150000 e
50150000 50500000 r
50500000 51500000 a
51500000 52050000 N
52050000 52450000 d
52450000 53050000 a
53050000 53650000 n
53650000 54100000 o
54100000 54350000 d
54350000 55300000 a
55300000 55850000 k
55850000 56400000 a
56400000 56850000 r
56850000 58150000 a
58150000 63700000 pau
63700000 65050000 o
65050000 65300000 o
65300000 65600000 r
65600000 66100000 i
66100000 66900000 ts
66900000 67300000 U
67300000 68350000 a
68350000 68900000 k
68900000 69650000 a
69650000 70000000 d
70000000 70700000 e
70700000 71500000 m
71500000 72150000 i
72150000 72650000 i
72650000 73200000 m
73200000 73900000 o
73900000 74850000 h
74850000 75100000 I
75100000 75500000 t
75500000 76150000 o
76150000 76650000 g
76650000 77150000 a
77150000 78000000 w
78000000 78550000 a
78550000 79000000 r
79000000 79600000 u
79600000 80500000 i
80500000 81300000 sil
